time,T [Nm],w [rad/s]
0,0,0
3.1652e-30,-7.1213e-23,-1.5826e-26
1.8398e-09,-0.041393,-9.5796e-06
1.1039e-08,-0.24835,-6.89e-05
5.7033e-08,-1.2831,-0.00065106
1.0303e-07,-2.3177,-0.0017091
1.6579e-07,-3.7293,-0.0039205
2.4792e-07,-5.5762,-0.0081526
3.5177e-07,-7.9108,-0.015675
4.794e-07,-10.779,-0.02824
6.3256e-07,-14.22,-0.04815
7.8572e-07,-17.659,-0.073328
9.8974e-07,-22.237,-0.11505
1.1938e-06,-26.812,-0.1661
1.4518e-06,-32.593,-0.24403
1.7098e-06,-38.367,-0.33686
2.0228e-06,-45.365,-0.46947
2.3358e-06,-52.352,-0.62398
2.6488e-06,-59.329,-0.80034
3.0398e-06,-68.028,-1.0513
3.4308e-06,-76.707,-1.3361
3.8218e-06,-85.366,-1.6549
4.2127e-06,-94.004,-2.0075
4.6998e-06,-104.73,-2.4939
5.1869e-06,-115.42,-3.0325
5.6739e-06,-126.07,-3.6231
6.161e-06,-136.68,-4.2654
6.648e-06,-147.24,-4.9592
7.2436e-06,-160.09,-5.8774
7.8392e-06,-172.86,-6.8718
8.4347e-06,-185.56,-7.9421
9.0303e-06,-198.16,-9.0877
9.6258e-06,-210.68,-10.308
1.0221e-05,-223.11,-11.603
1.0817e-05,-235.44,-12.971
1.1413e-05,-247.66,-14.413
1.2008e-05,-259.78,-15.927
1.2604e-05,-271.79,-17.512
1.3199e-05,-283.68,-19.169
1.3795e-05,-295.46,-20.897
1.439e-05,-307.11,-22.694
1.4986e-05,-318.64,-24.56
1.5581e-05,-330.04,-26.495
1.6177e-05,-341.3,-28.497
1.6773e-05,-352.42,-30.565
1.7368e-05,-363.41,-32.7
1.7964e-05,-374.24,-34.899
1.8559e-05,-384.93,-37.163
1.9155e-05,-395.47,-39.489
1.975e-05,-405.85,-41.878
2.0346e-05,-416.07,-44.328
2.0941e-05,-426.12,-46.839
2.1537e-05,-436.01,-49.409
2.2133e-05,-445.73,-52.037
2.2728e-05,-455.28,-54.723
2.3324e-05,-464.65,-57.465
2.3919e-05,-473.84,-60.262
2.4515e-05,-482.85,-63.114
2.511e-05,-491.68,-66.018
2.5706e-05,-500.32,-68.975
2.6301e-05,-508.76,-71.982
2.6897e-05,-517.01,-75.04
2.7493e-05,-525.07,-78.145
2.8088e-05,-532.93,-81.298
2.8684e-05,-540.59,-84.498
2.9279e-05,-548.04,-87.742
2.9875e-05,-555.29,-91.03
3.047e-05,-562.32,-94.36
3.1066e-05,-569.15,-97.732
3.1661e-05,-575.77,-101.14
3.2257e-05,-582.17,-104.59
3.2853e-05,-588.35,-108.08
3.3448e-05,-594.31,-111.61
3.4044e-05,-600.06,-115.17
3.4639e-05,-605.58,-118.76
3.5235e-05,-610.88,-122.38
3.583e-05,-615.95,-126.04
3.6426e-05,-620.8,-129.72
3.7021e-05,-625.41,-133.44
3.7617e-05,-629.8,-137.18
3.8213e-05,-633.96,-140.94
3.8808e-05,-637.88,-144.73
3.9404e-05,-641.57,-148.54
3.9999e-05,-645.03,-152.38
4.0595e-05,-648.25,-156.23
4.119e-05,-651.23,-160.1
4.1786e-05,-653.98,-163.99
4.2382e-05,-656.49,-167.89
4.2977e-05,-658.76,-171.81
4.3573e-05,-660.8,-175.74
4.4291e-05,-662.93,-180.5
4.5009e-05,-664.71,-185.27
4.5727e-05,-666.15,-190.05
4.6445e-05,-667.24,-194.84
4.7163e-05,-667.97,-199.64
4.7882e-05,-668.36,-204.44
4.86e-05,-668.4,-209.24
4.9318e-05,-668.09,-214.04
5.0036e-05,-667.44,-218.84
5.0754e-05,-666.44,-223.63
5.1472e-05,-665.09,-228.42
5.2191e-05,-663.39,-233.19
5.2909e-05,-661.36,-237.95
5.3627e-05,-658.98,-242.69
5.4345e-05,-656.26,-247.42
5.5063e-05,-653.2,-252.12
5.5782e-05,-649.81,-256.8
5.65e-05,-646.08,-261.46
5.7218e-05,-642.02,-266.08
5.809e-05,-636.65,-271.66
5.8962e-05,-630.79,-277.19
5.9834e-05,-624.46,-282.67
6.0707e-05,-617.66,-288.08
6.1579e-05,-610.4,-293.44
6.2451e-05,-602.68,-298.73
6.3323e-05,-594.5,-303.96
6.4195e-05,-585.88,-309.11
6.5067e-05,-576.83,-314.18
6.594e-05,-567.34,-319.17
6.7001e-05,-555.23,-325.13
6.8061e-05,-542.51,-330.95
6.9122e-05,-529.2,-336.64
7.0183e-05,-515.31,-342.18
7.1244e-05,-500.85,-347.57
7.2305e-05,-485.85,-352.81
7.3594e-05,-466.93,-358.95
7.4882e-05,-447.27,-364.84
7.617e-05,-426.89,-370.47
7.7459e-05,-405.84,-375.84
7.8747e-05,-384.15,-380.93
8.0035e-05,-361.86,-385.74
8.1324e-05,-339,-390.26
8.2612e-05,-315.62,-394.47
8.39e-05,-291.75,-398.39
8.5189e-05,-267.44,-401.99
8.6477e-05,-242.72,-405.28
8.7765e-05,-217.64,-408.25
8.9054e-05,-192.25,-410.89
9.0342e-05,-166.57,-413.2
9.163e-05,-140.66,-415.18
9.2919e-05,-114.57,-416.83
9.4207e-05,-88.322,-418.13
9.5495e-05,-61.974,-419.1
9.6784e-05,-35.568,-419.73
9.8072e-05,-9.1465,-420.02
9.936e-05,17.246,-419.97
0.00010065,43.566,-419.58
0.00010194,69.77,-418.85
0.00010323,95.815,-417.78
0.00010451,121.66,-416.38
0.0001058,147.25,-414.65
0.00010709,172.57,-412.59
0.00010838,197.55,-410.21
0.00010967,222.16,-407.51
0.00011096,246.37,-404.49
0.00011224,270.12,-401.17
0.00011353,293.39,-397.54
0.00011482,316.13,-393.61
0.00011611,338.32,-389.4
0.0001174,359.9,-384.9
0.00011895,385.01,-379.13
0.00012049,409.14,-372.99
0.00012204,432.25,-366.47
0.00012359,454.28,-359.61
0.00012514,475.18,-352.41
0.00012669,494.91,-344.9
0.00012824,513.41,-337.1
0.00012979,530.65,-329.01
0.00013133,546.58,-320.68
0.00013288,561.19,-312.1
0.00013443,574.42,-303.31
0.00013598,586.26,-294.32
0.00013753,596.67,-285.17
0.00013908,605.64,-275.86
0.00014063,613.15,-266.43
0.00014217,619.18,-256.89
0.00014372,623.73,-247.27
0.00014527,626.78,-237.59
0.00014682,628.33,-227.87
0.00014837,628.39,-218.14
0.00014992,626.94,-208.43
0.00015147,624.01,-198.74
0.00015301,619.61,-189.12
0.00015456,613.74,-179.57
0.00015611,606.42,-170.13
0.00015766,597.68,-160.81
0.00015921,587.54,-151.64
0.00016076,576.03,-142.63
0.00016231,563.17,-133.82
0.00016385,549.01,-125.21
0.0001654,533.59,-116.83
0.00016695,516.93,-108.7
0.0001685,499.09,-100.84
0.00017005,480.11,-93.265
0.0001716,460.04,-85.992
0.00017315,438.93,-79.037
0.00017469,416.84,-72.417
0.00017624,393.82,-66.146
0.00017779,369.94,-60.238
0.00017934,345.24,-54.707
0.00018089,319.81,-49.564
0.00018244,293.69,-44.82
0.00018399,266.96,-40.486
0.00018554,239.68,-36.57
0.00018708,211.93,-33.08
0.00018863,183.77,-30.023
0.00019018,155.27,-27.405
0.00019173,126.51,-25.23
0.00019328,97.559,-23.503
0.00019483,68.487,-22.224
0.00019638,39.369,-21.397
0.00019792,10.278,-21.02
0.00019947,-18.713,-21.092
0.00020102,-47.533,-21.613
0.00020257,-76.108,-22.578
0.00020412,-104.37,-23.983
0.00020567,-132.24,-25.823
0.00020722,-159.66,-28.091
0.00020876,-186.55,-30.779
0.00021031,-212.86,-33.879
0.00021186,-238.5,-37.382
0.00021341,-263.43,-41.276
0.00021496,-287.58,-45.55
0.00021651,-310.89,-50.191
0.00021806,-333.29,-55.187
0.0002196,-354.75,-60.522
0.00022115,-375.2,-66.181
0.0002227,-394.59,-72.149
0.00022425,-412.87,-78.409
0.0002258,-430.01,-84.942
0.00022735,-445.96,-91.732
0.00022924,-463.82,-100.37
0.00023114,-479.78,-109.33
0.00023304,-493.76,-118.58
0.00023494,-505.73,-128.07
0.00023683,-515.65,-137.76
0.00023873,-523.47,-147.63
0.00024063,-529.17,-157.62
0.00024252,-532.74,-167.7
0.00024442,-534.16,-177.83
0.00024632,-533.43,-187.97
0.00024822,-530.56,-198.07
0.00025011,-525.56,-208.09
0.00025201,-518.45,-218.01
0.00025391,-509.27,-227.76
0.00025581,-498.06,-237.32
0.0002577,-484.85,-246.65
0.0002596,-469.71,-255.72
0.0002615,-452.69,-264.47
0.00026339,-433.86,-272.89
0.00026529,-413.3,-280.93
0.00026719,-391.1,-288.56
0.00026909,-367.33,-295.76
0.00027098,-342.09,-302.5
0.00027288,-315.48,-308.74
0.00027478,-287.62,-314.47
0.00027667,-258.59,-319.65
0.00027857,-228.54,-324.28
0.00028047,-197.56,-328.32
0.00028237,-165.78,-331.77
0.00028426,-133.33,-334.62
0.00028616,-100.34,-336.84
0.00028806,-66.931,-338.43
0.00028996,-33.239,-339.38
0.00029185,0.60525,-339.69
0.00029375,34.468,-339.36
0.00029565,68.216,-338.39
0.00029754,101.72,-336.78
0.00029944,134.84,-334.54
0.00030134,167.46,-331.68
0.00030324,199.44,-328.2
0.00030513,230.65,-324.12
0.00030703,260.99,-319.46
0.00030893,290.32,-314.23
0.00031082,318.54,-308.46
0.00031272,345.53,-302.16
0.00031462,371.19,-295.37
0.00031652,395.42,-288.1
0.00031841,418.12,-280.38
0.00032031,439.21,-272.25
0.00032221,458.6,-263.74
0.00032411,476.23,-254.87
0.000326,492.01,-245.69
0.0003279,505.9,-236.23
0.0003298,517.84,-226.52
0.00033169,527.78,-216.61
0.00033359,535.69,-206.52
0.00033549,541.53,-196.31
0.00033739,545.3,-186
0.00033928,546.96,-175.64
0.00034118,546.53,-165.28
0.00034308,544.01,-154.94
0.00034497,539.4,-144.66
0.00034687,532.73,-134.5
0.00034877,524.03,-124.48
0.00035067,513.33,-114.64
0.00035256,500.68,-105.03
0.00035446,486.14,-95.676
0.00035636,469.77,-86.614
0.00035826,451.62,-77.881
0.00036015,431.79,-69.507
0.00036205,410.35,-61.526
0.00036395,387.39,-53.965
0.00036584,363,-46.855
0.00036774,337.29,-40.219
0.00036964,310.37,-34.083
0.00037154,282.33,-28.469
0.00037343,253.31,-23.396
0.00037533,223.42,-18.882
0.00037723,192.78,-14.943
0.00037912,161.52,-11.591
0.00038102,129.77,-8.8364
0.00038292,97.659,-6.6881
0.00038482,65.321,-5.1514
0.00038671,32.888,-4.2293
0.00038861,0.49602,-3.9221
0.00039051,-31.723,-4.2281
0.00039241,-63.634,-5.1424
0.0003943,-95.108,-6.6581
0.0003962,-126.01,-8.7656
0.0003981,-156.22,-11.453
0.00039999,-185.61,-14.706
0.00040189,-214.06,-18.507
0.00040379,-241.45,-22.838
0.00040569,-267.66,-27.678
0.00040758,-292.6,-33.002
0.00040948,-316.16,-38.787
0.00041138,-338.23,-45.005
0.00041327,-358.74,-51.626
0.00041517,-377.59,-58.621
0.00041707,-394.72,-65.957
0.00041897,-410.04,-73.601
0.00042086,-423.51,-81.518
0.00042276,-435.05,-89.671
0.00042466,-444.64,-98.026
0.00042656,-452.22,-106.54
0.00042845,-457.78,-115.18
0.00043035,-461.28,-123.91
0.00043225,-462.72,-132.68
0.00043414,-462.09,-141.47
0.00043604,-459.4,-150.22
0.00043794,-454.66,-158.89
0.00043984,-447.89,-167.46
0.00044173,-439.13,-175.89
0.00044363,-428.41,-184.12
0.00044553,-415.79,-192.14
0.00044742,-401.31,-199.9
0.00044932,-385.04,-207.36
0.00045122,-367.06,-214.51
0.00045312,-347.44,-221.29
0.00045501,-326.26,-227.69
0.00045691,-303.63,-233.67
0.00045881,-279.63,-239.21
0.00046071,-254.37,-244.28
0.0004626,-227.97,-248.86
0.00046489,-194.83,-253.69
0.00046717,-160.41,-257.76
0.00046945,-124.91,-261.02
0.00047174,-88.565,-263.47
0.00047402,-51.602,-265.07
0.0004763,-14.254,-265.83
0.00047859,23.246,-265.73
0.00048087,60.66,-264.78
0.00048316,97.754,-262.97
0.00048544,134.29,-260.33
0.00048772,170.05,-256.86
0.00049001,204.8,-252.58
0.00049229,238.32,-247.53
0.00049457,270.4,-241.72
0.00049686,300.85,-235.2
0.00049914,329.46,-228.01
0.00050143,356.07,-220.19
0.00050371,380.5,-211.78
0.00050599,402.6,-202.84
0.00050828,422.24,-193.43
0.00051056,439.28,-183.6
0.00051284,453.63,-173.41
0.00051476,463.56,-164.6
0.00051476,463.56,-164.6
0.00051705,472.73,-153.91
0.00051933,479,-143.05
0.00052162,482.34,-132.08
0.0005239,482.73,-121.07
0.00052618,480.16,-110.08
0.00052847,474.66,-99.181
0.00053075,466.26,-88.444
0.00053303,455.03,-77.931
0.00053532,441.03,-67.707
0.0005376,424.37,-57.833
0.00053989,405.15,-48.369
0.00054217,383.5,-39.372
0.00054445,359.56,-30.896
0.00054674,333.48,-22.991
0.00054902,305.45,-15.705
0.0005513,275.64,-9.0796
0.00055359,244.25,-3.1532
0.00055587,211.49,2.0403
0.00055815,177.57,6.4722
0.00056044,142.71,10.118
0.00056272,107.15,12.96
0.00056501,71.109,14.984
0.00056729,34.831,16.182
0.00056957,-1.4474,16.551
0.00057186,-37.489,16.094
0.00057414,-73.057,14.819
0.00057642,-107.92,12.74
0.00057871,-141.84,9.8751
0.00058099,-174.61,6.2486
0.00058328,-206.01,1.8893
0.00058556,-235.84,-3.1691
0.00058784,-263.89,-8.8884
0.00059013,-289.99,-15.226
0.00059241,-313.96,-22.135
0.00059469,-335.65,-29.566
0.00059698,-354.93,-37.465
0.00059926,-371.66,-45.774
0.00060154,-385.74,-54.436
0.00060383,-397.08,-63.387
0.00060611,-405.61,-72.565
0.0006084,-411.28,-81.905
0.00061068,-414.04,-91.341
0.00061296,-413.89,-100.81
0.00061525,-410.84,-110.24
0.00061753,-404.9,-119.56
0.00061981,-396.13,-128.72
0.0006221,-384.58,-137.65
0.00062438,-370.34,-146.28
0.00062667,-353.51,-154.55
0.00062895,-334.2,-162.41
0.00063123,-312.55,-169.81
0.00063352,-288.71,-176.68
0.0006358,-262.84,-182.99
0.00063808,-235.13,-188.69
0.00064037,-205.75,-193.73
0.00064265,-174.92,-198.08
0.00064493,-142.85,-201.72
0.00064722,-109.75,-204.61
0.00064997,-68.897,-207.07
0.00065271,-27.301,-208.4
0.00065546,14.632,-208.59
0.00065821,56.486,-207.62
0.00066095,97.847,-205.5
0.0006637,138.31,-202.27
0.00066645,177.46,-197.93
0.0006692,214.93,-192.55
0.00067194,250.34,-186.16
0.00067469,283.35,-178.84
0.00067685,307.46,-172.45
0.00067902,329.72,-165.56
0.00068119,350.01,-158.2
0.00068335,368.19,-150.43
0.00068552,384.16,-142.29
0.00068768,397.81,-133.83
0.00068985,409.08,-125.1
0.00069201,417.89,-116.15
0.00069418,424.19,-107.04
0.00069634,427.94,-97.823
0.00069851,429.13,-88.55
0.00070067,427.75,-79.28
0.00070284,423.8,-70.067
0.000705,417.33,-60.967
0.00070717,408.38,-52.035
0.00070933,397,-43.323
0.0007115,383.26,-34.883
0.00071367,367.26,-26.766
0.00071583,349.11,-19.019
0.000718,328.91,-11.687
0.00072016,306.79,-4.8132
0.00072233,282.91,1.5619
0.00072449,257.41,7.4021
0.00072666,230.45,12.674
0.00072882,202.21,17.348
0.00073099,172.86,21.398
0.00073315,142.6,24.803
0.00073589,103.33,28.156
0.00073863,63.294,30.423
0.00074137,22.912,31.589
0.00074411,-17.413,31.648
0.00074684,-57.27,30.61
0.00074958,-96.257,28.492
0.00075232,-133.98,25.323
0.00075506,-170.06,21.144
0.0007578,-204.12,16.004
0.00076054,-235.84,9.9631
0.00076327,-264.88,3.0904
0.00076537,-285.15,-2.6922
0.00076747,-303.56,-8.8807
0.00076957,-320,-15.435
0.00077167,-334.38,-22.312
0.00077376,-346.62,-29.469
0.00077586,-356.64,-36.859
0.00077796,-364.39,-44.435
0.00078006,-369.83,-52.149
0.00078216,-372.92,-59.953
0.00078426,-373.66,-67.797
0.00078635,-372.03,-75.631
0.00078845,-368.06,-83.407
0.00079055,-361.78,-91.074
0.00079265,-353.22,-98.586
0.00079475,-342.44,-105.89
0.00079685,-329.52,-112.95
0.00079894,-314.53,-119.72
0.00080104,-297.56,-126.15
0.00080314,-278.73,-132.21
0.00080524,-258.16,-137.85
0.00080734,-235.96,-143.04
0.00080944,-212.29,-147.75
0.00081153,-187.28,-151.95
0.00081363,-161.1,-155.62
0.00081573,-133.9,-158.72
0.0008183,-99.452,-161.73
0.00082038,-70.832,-163.51
0.00082038,-70.832,-163.51
0.00082295,-34.909,-164.88
0.00082607,9.1355,-165.29
0.00082919,53.099,-164.33
0.00083231,96.384,-162
0.00083543,138.4,-158.35
0.00083855,178.59,-153.41
0.00084167,216.4,-147.26
0.000844,242.74,-141.92
0.00084632,267.28,-136
0.00084865,289.83,-129.52
0.00085098,310.23,-122.55
0.0008533,328.32,-115.13
0.00085563,343.97,-107.32
0.00085795,357.07,-99.172
0.00086028,367.53,-90.752
0.00086261,375.25,-82.12
0.00086493,380.21,-73.341
0.00086726,382.35,-64.48
0.00086958,381.67,-55.602
0.00087191,378.17,-46.772
0.00087424,371.9,-38.057
0.00087656,362.91,-29.519
0.00087889,351.26,-21.222
0.00088121,337.06,-13.225
0.00088354,320.41,-5.5878
0.00088587,301.45,1.635
0.00088819,280.33,8.3914
0.00089052,257.21,14.633
0.00089284,232.28,20.315
0.00089517,205.73,25.398
0.0008975,177.77,29.847
0.00089982,148.61,33.632
0.00090215,118.49,36.726
0.00090498,80.814,39.538
0.00090782,42.482,41.27
0.00091066,3.9385,41.913
0.00091349,-34.372,41.465
0.00091633,-72.01,39.939
0.00091916,-108.55,37.362
0.000922,-143.56,33.769
0.00092483,-176.65,29.211
0.00092767,-207.45,23.746
0.00092991,-229.9,18.841
0.00093214,-250.55,13.453
0.00093438,-269.24,7.6255
0.00093662,-285.86,1.4029
0.00093886,-300.28,-5.1668
0.00094109,-312.4,-12.033
0.00094333,-322.15,-19.144
0.00094557,-329.46,-26.446
0.0009478,-334.27,-33.883
0.00095004,-336.57,-41.4
0.00095228,-336.34,-48.939
0.00095452,-333.58,-56.445
0.00095675,-328.33,-63.861
0.00095899,-320.62,-71.132
0.00096123,-310.53,-78.204
0.00096346,-298.11,-85.024
0.0009657,-283.48,-91.54
0.00096794,-266.75,-97.706
0.00097018,-248.03,-103.47
0.00097241,-227.47,-108.8
0.00097465,-205.23,-113.65
0.00097689,-181.46,-117.99
0.00097912,-156.35,-121.78
0.00098136,-130.09,-124.99
0.0009836,-102.86,-127.61
0.00098635,-68.387,-129.97
0.0009891,-33.147,-131.38
0.00099185,2.4677,-131.81
0.00099459,38.062,-131.26
0.00099734,73.244,-129.74
0.0010001,107.62,-127.26
0.0010028,140.82,-123.86
0.0010056,172.48,-119.56
0.0010083,202.24,-114.41
0.0010111,229.79,-108.48
0.0010138,254.82,-101.83
0.001016,272.36,-96.21
0.0010181,288.1,-90.234
0.0010202,301.94,-83.942
0.0010224,313.8,-77.375
0.0010245,323.59,-70.578
0.0010266,331.25,-63.595
0.0010288,336.75,-56.471
0.0010309,340.04,-49.253
0.0010331,341.11,-41.99
0.0010352,339.96,-34.727
0.0010373,336.59,-27.512
0.0010395,331.04,-20.393
0.0010416,323.35,-13.416
0.0010437,313.57,-6.6247
0.0010459,301.78,-0.064295
0.001048,288.05,6.2234
0.0010501,272.49,12.198
0.0010523,255.2,17.822
0.0010544,236.31,23.059
0.0010565,215.94,27.877
0.0010587,194.23,32.246
0.0010608,171.34,36.138
0.0010629,147.42,39.53
0.0010655,117.39,42.933
0.0010681,86.397,45.548
0.0010707,54.751,47.355
0.001074,13.538,48.471
0.0010773,-27.556,48.218
0.0010807,-67.857,46.612
0.001084,-106.71,43.689
0.0010873,-143.47,39.509
0.0010898,-169.8,35.513
0.0010924,-194.32,30.871
0.0010949,-216.78,25.633
0.0010975,-236.99,19.852
0.0011,-254.75,13.589
0.0011025,-269.89,6.9073
0.0011046,-280.03,1.3115
0.0011066,-288.34,-4.4715
0.0011086,-294.8,-10.404
0.0011107,-299.35,-16.449
0.0011127,-301.98,-22.566
0.0011147,-302.67,-28.717
0.0011168,-301.43,-34.863
0.0011188,-298.26,-40.963
0.0011208,-293.2,-46.98
0.0011229,-286.27,-52.874
0.0011249,-277.52,-58.61
0.0011269,-267.02,-64.15
0.0011289,-254.83,-69.459
0.001131,-241.03,-74.504
0.001133,-225.71,-79.253
0.001135,-208.96,-83.676
0.0011371,-190.91,-87.746
0.0011391,-171.65,-91.436
0.0011411,-151.32,-94.725
0.0011436,-125.65,-98.117
0.001146,-98.841,-100.87
0.0011485,-71.146,-102.95
0.0011515,-35.87,-104.59
0.0011545,-0.10507,-105.15
0.0011576,35.648,-104.62
0.0011606,70.893,-103.01
0.0011636,105.14,-100.35
0.0011667,137.91,-96.672
0.0011697,168.77,-92.029
0.0011727,197.27,-86.484
0.001175,217.22,-81.689
0.0011774,235.41,-76.453
0.0011797,251.71,-70.817
0.001182,265.97,-64.827
0.0011843,278.1,-58.531
0.0011866,287.99,-51.98
0.001189,295.58,-45.226
0.0011913,300.8,-38.325
0.0011936,303.63,-31.33
0.0011959,304.03,-24.298
0.0011982,302.03,-17.284
0.0012005,297.63,-10.345
0.0012029,290.88,-3.5359
0.0012052,281.84,3.0905
0.0012075,270.6,9.4817
0.0012098,257.24,15.588
0.0012121,241.89,21.361
0.0012144,224.68,26.756
0.0012168,205.74,31.732
0.0012191,185.25,36.251
0.0012214,163.37,40.279
0.0012237,140.28,43.786
0.001226,116.19,46.746
0.0012283,91.281,49.137
0.0012313,58.177,51.363
0.0012343,24.519,52.587
0.0012373,-9.2272,52.799
0.0012403,-42.597,52.003
0.0012433,-75.132,50.219
0.0012448,-90.743,48.983
0.0012448,-90.743,48.983
0.0012478,-121.21,45.785
0.0012508,-149.77,41.7
0.0012538,-176.04,36.794
0.0012561,-194.58,32.475
0.0012585,-211.38,27.746
0.0012608,-226.31,22.649
0.0012631,-239.25,17.228
0.0012654,-250.1,11.531
0.0012678,-258.78,5.6072
0.0012701,-265.21,-0.49211
0.0012724,-269.36,-6.7142
0.0012747,-271.19,-13.006
0.0012771,-270.7,-19.312
0.0012794,-267.89,-25.58
0.0012817,-262.8,-31.757
0.001284,-255.48,-37.789
0.0012863,-245.98,-43.625
0.0012887,-234.41,-49.217
0.001291,-220.86,-54.516
0.0012933,-205.44,-59.479
0.0012956,-188.3,-64.063
0.001298,-169.58,-68.231
0.0013003,-149.44,-71.947
0.0013026,-128.05,-75.181
0.0013049,-105.6,-77.905
0.0013072,-82.275,-80.097
0.0013102,-52.063,-82.068
0.0013131,-21.186,-83.149
0.0013166,16.369,-83.247
0.0013201,53.575,-82.029
0.0013236,89.721,-79.519
0.0013272,124.12,-75.767
0.0013299,149.53,-71.988
0.0013327,173.17,-67.531
0.0013355,194.74,-62.447
0.0013382,214,-56.798
0.0013404,227.6,-51.918
0.0013427,239.48,-46.755
0.0013449,249.56,-41.35
0.0013471,257.76,-35.742
0.0013493,264.03,-29.974
0.0013515,268.33,-24.089
0.0013537,270.62,-18.131
0.0013559,270.89,-12.145
0.0013582,269.15,-6.1755
0.0013604,265.42,-0.26666
0.0013626,259.73,5.5378
0.0013648,252.14,11.195
0.001367,242.69,16.663
0.0013692,231.47,21.903
0.0013714,218.58,26.875
0.0013737,204.1,31.544
0.0013759,188.17,35.876
0.0013781,170.9,39.84
0.0013803,152.43,43.408
0.0013825,132.9,46.556
0.0013847,112.47,49.261
0.0013875,85.938,51.99
0.0013903,58.562,53.973
0.0013937,23.994,55.367
0.0013971,-10.721,55.574
0.0014005,-44.949,54.6
0.001404,-78.066,52.472
0.0014074,-109.47,49.238
0.0014108,-138.6,44.967
0.0014133,-158.15,41.24
0.0014158,-176.01,37.044
0.0014183,-192.02,32.425
0.0014208,-206.02,27.431
0.0014233,-217.9,22.113
0.0014258,-227.53,16.526
0.0014283,-234.83,10.727
0.0014308,-239.74,4.7753
0.0014333,-242.21,-1.2683
0.0014358,-242.23,-7.3431
0.0014383,-239.82,-13.388
0.0014408,-234.99,-19.342
0.0014433,-227.81,-25.145
0.0014458,-218.35,-30.74
0.0014483,-206.72,-36.071
0.0014508,-193.03,-41.085
0.0014533,-177.43,-45.732
